Frequency [Hz],FFT Amplitude [Vrms]
0.000,19.030
7.812,13.494
15.625,0.594
23.437,0.560
31.250,0.572
39.062,0.541
46.875,0.506
54.687,0.485
62.500,0.525
70.312,0.490
78.125,0.439
85.937,0.422
93.750,0.439
101.562,0.426
109.375,0.483
117.187,0.481
125.000,0.449
132.812,0.540
140.625,0.489
148.437,0.466
156.250,0.516
164.062,0.483
171.875,0.577
179.687,0.949
187.500,1.765
195.312,2.763
203.125,2.119
210.937,1.135
218.750,0.689
226.562,0.551
234.375,0.533
242.187,0.438
250.000,0.381
257.812,0.366
265.625,0.386
273.437,0.406
281.250,0.371
289.062,0.375
296.875,0.388
304.687,0.366
312.500,0.353
320.312,0.353
328.125,0.343
335.937,0.384
343.750,0.355
351.562,0.384
359.375,0.369
367.187,0.359
375.000,0.401
382.812,0.409
390.625,0.413
398.437,0.414
406.250,0.386
414.062,0.360
421.875,0.357
429.687,0.310
437.500,0.314
445.312,0.319
453.125,0.300
460.937,0.272
468.750,0.240
476.562,0.265
484.375,0.279
492.187,0.271
500.000,0.270
507.812,0.268
515.625,0.250
523.437,0.219
531.250,0.237
539.062,0.269
546.875,0.293
554.687,0.304
562.500,0.293
570.312,0.282
578.125,0.257
585.937,0.279
593.750,0.293
601.562,0.275
609.375,0.251
617.187,0.242
625.000,0.261
632.812,0.255
640.625,0.209
648.437,0.211
656.250,0.239
664.062,0.251
671.875,0.216
679.687,0.213
687.500,0.240
695.312,0.237
703.125,0.196
710.937,0.221
718.750,0.213
726.562,0.208
734.375,0.232
742.187,0.235
750.000,0.209
757.812,0.197
765.625,0.222
773.437,0.221
781.250,0.211
789.062,0.199
796.875,0.169
804.687,0.194
812.500,0.213
820.312,0.196
828.125,0.172
835.937,0.177
843.750,0.186
851.562,0.182
859.375,0.206
867.187,0.183
875.000,0.176
882.812,0.172
890.625,0.183
898.437,0.176
906.250,0.172
914.062,0.160
921.875,0.157
929.687,0.180
937.500,0.182
945.312,0.180
953.125,0.189
960.937,0.177
968.750,0.156
976.562,0.174
984.375,0.175
992.187,0.169
1000.000,0.164
1007.812,0.170
1015.625,0.172
1023.437,0.154
1031.250,0.146
1039.062,0.144
1046.875,0.150
1054.687,0.153
1062.500,0.152
1070.312,0.139
1078.125,0.148
1085.937,0.163
1093.750,0.159
1101.562,0.151
1109.375,0.146
1117.187,0.138
1125.000,0.138
1132.812,0.157
1140.625,0.163
1148.437,0.157
1156.250,0.150
1164.062,0.150
1171.875,0.157
1179.687,0.159
1187.500,0.157
1195.312,0.154
1203.125,0.150
1210.937,0.140
1218.750,0.142
1226.562,0.141
1234.375,0.129
1242.187,0.120
1250.000,0.134
1257.812,0.141
1265.625,0.136
1273.437,0.131
1281.250,0.137
1289.062,0.127
1296.875,0.127
1304.687,0.140
1312.500,0.137
1320.312,0.118
1328.125,0.123
1335.937,0.125
1343.750,0.124
1351.562,0.120
1359.375,0.138
1367.187,0.147
1375.000,0.134
1382.812,0.130
1390.625,0.136
1398.437,0.131
1406.250,0.124
1414.062,0.112
1421.875,0.136
1429.687,0.139
1437.500,0.117
1445.312,0.129
1453.125,0.126
1460.937,0.120
1468.750,0.121
1476.562,0.134
1484.375,0.137
1492.187,0.124
1500.000,0.124
1507.812,0.111
1515.625,0.114
1523.437,0.108
1531.250,0.105
1539.062,0.107
1546.875,0.121
1554.687,0.128
1562.500,0.125
1570.312,0.119
1578.125,0.106
1585.937,0.118
1593.750,0.127
1601.562,0.123
1609.375,0.118
1617.187,0.112
1625.000,0.111
1632.812,0.114
1640.625,0.112
1648.437,0.098
1656.250,0.108
1664.062,0.115
1671.875,0.103
1679.687,0.099
1687.500,0.106
1695.312,0.095
1703.125,0.103
1710.937,0.112
1718.750,0.098
1726.562,0.102
1734.375,0.099
1742.187,0.100
1750.000,0.107
1757.812,0.090
1765.625,0.097
1773.437,0.095
1781.250,0.099
1789.062,0.119
1796.875,0.114
1804.687,0.099
1812.500,0.092
1820.312,0.097
1828.125,0.097
1835.937,0.094
1843.750,0.089
1851.562,0.104
1859.375,0.098
1867.187,0.096
1875.000,0.083
1882.812,0.098
1890.625,0.095
1898.437,0.087
1906.250,0.097
1914.062,0.100
1921.875,0.097
1929.687,0.091
1937.500,0.091
1945.312,0.089
1953.125,0.086
1960.937,0.089
1968.750,0.081
1976.562,0.083
1984.375,0.091
1992.187,0.098
2000.000,0.100
2007.812,0.089
2015.625,0.088
2023.437,0.097
2031.250,0.081
2039.062,0.079
2046.875,0.081
2054.687,0.082
2062.500,0.087
2070.312,0.086
2078.125,0.084
2085.937,0.086
2093.750,0.085
2101.562,0.098
2109.375,0.091
2117.187,0.081
2125.000,0.081
2132.812,0.088
2140.625,0.087
2148.437,0.082
2156.250,0.087
2164.062,0.090
2171.875,0.082
2179.687,0.080
2187.500,0.078
2195.312,0.081
2203.125,0.083
2210.937,0.084
2218.750,0.085
2226.562,0.083
2234.375,0.075
2242.187,0.078
2250.000,0.077
2257.812,0.088
2265.625,0.092
2273.437,0.073
2281.250,0.075
2289.062,0.085
2296.875,0.093
2304.687,0.075
2312.500,0.075
2320.312,0.078
2328.125,0.084
2335.937,0.083
2343.750,0.076
2351.562,0.071
2359.375,0.070
2367.187,0.075
2375.000,0.076
2382.812,0.077
2390.625,0.074
2398.437,0.077
2406.250,0.079
2414.062,0.078
2421.875,0.082
2429.687,0.080
2437.500,0.075
2445.312,0.079
2453.125,0.079
2460.937,0.084
2468.750,0.077
2476.562,0.079
2484.375,0.073
2492.187,0.072
2500.000,0.077
2507.812,0.075
2515.625,0.077
2523.437,0.081
2531.250,0.075
2539.062,0.070
2546.875,0.070
2554.687,0.076
2562.500,0.069
2570.312,0.066
2578.125,0.067
2585.937,0.067
2593.750,0.071
2601.562,0.068
2609.375,0.066
2617.187,0.072
2625.000,0.070
2632.812,0.068
2640.625,0.073
2648.437,0.073
2656.250,0.073
2664.062,0.082
2671.875,0.080
2679.687,0.067
2687.500,0.067
2695.312,0.070
2703.125,0.075
2710.937,0.075
2718.750,0.068
2726.562,0.070
2734.375,0.074
2742.187,0.064
2750.000,0.069
2757.812,0.074
2765.625,0.069
2773.437,0.073
2781.250,0.065
2789.062,0.068
2796.875,0.064
2804.687,0.062
2812.500,0.064
2820.312,0.059
2828.125,0.064
2835.937,0.066
2843.750,0.069
2851.562,0.070
2859.375,0.065
2867.187,0.065
2875.000,0.066
2882.812,0.072
2890.625,0.068
2898.437,0.072
2906.250,0.073
2914.062,0.067
2921.875,0.058
2929.687,0.063
2937.500,0.059
2945.312,0.063
2953.125,0.068
2960.937,0.063
2968.750,0.063
2976.562,0.068
2984.375,0.070
2992.187,0.065
3000.000,0.057
3007.812,0.062
3015.625,0.070
3023.437,0.064
3031.250,0.058
3039.062,0.065
3046.875,0.064
3054.687,0.056
3062.500,0.060
3070.312,0.072
3078.125,0.071
3085.937,0.059
3093.750,0.053
3101.562,0.061
3109.375,0.067
3117.187,0.063
3125.000,0.061
3132.812,0.062
3140.625,0.064
3148.437,0.066
3156.250,0.060
3164.062,0.060
3171.875,0.058
3179.687,0.065
3187.500,0.069
3195.312,0.058
3203.125,0.060
3210.937,0.062
3218.750,0.054
3226.562,0.059
3234.375,0.057
3242.187,0.054
3250.000,0.060
3257.812,0.064
3265.625,0.061
3273.437,0.067
3281.250,0.065
3289.062,0.065
3296.875,0.063
3304.687,0.065
3312.500,0.061
3320.312,0.056
3328.125,0.062
3335.937,0.064
3343.750,0.064
3351.562,0.055
3359.375,0.054
3367.187,0.058
3375.000,0.064
3382.812,0.058
3390.625,0.050
3398.437,0.057
3406.250,0.052
3414.062,0.061
3421.875,0.055
3429.687,0.055
3437.500,0.057
3445.312,0.056
3453.125,0.056
3460.937,0.054
3468.750,0.057
3476.562,0.057
3484.375,0.061
3492.187,0.057
3500.000,0.055
3507.812,0.056
3515.625,0.053
3523.437,0.063
3531.250,0.070
3539.062,0.063
3546.875,0.062
3554.687,0.052
3562.500,0.048
3570.312,0.054
3578.125,0.055
3585.937,0.054
3593.750,0.052
3601.562,0.055
3609.375,0.060
3617.187,0.061
3625.000,0.054
3632.812,0.057
3640.625,0.055
3648.437,0.048
3656.250,0.055
3664.062,0.060
3671.875,0.062
3679.687,0.068
3687.500,0.062
3695.312,0.057
3703.125,0.061
3710.937,0.056
3718.750,0.054
3726.562,0.064
3734.375,0.063
3742.187,0.064
3750.000,0.055
3757.812,0.051
3765.625,0.056
3773.437,0.058
3781.250,0.059
3789.062,0.051
3796.875,0.054
3804.687,0.052
3812.500,0.057
3820.312,0.051
3828.125,0.047
3835.937,0.059
3843.750,0.056
3851.562,0.060
3859.375,0.067
3867.187,0.056
3875.000,0.056
3882.812,0.059
3890.625,0.055
3898.437,0.059
3906.250,0.057
3914.062,0.056
3921.875,0.059
3929.687,0.061
3937.500,0.054
3945.312,0.053
3953.125,0.058
3960.937,0.054
3968.750,0.053
3976.562,0.052
3984.375,0.058
3992.187,0.055
